9/16/2019	11:41 AM
Amplitude: 2.00 V
Freq  (Hz) 	 Gain (dB)  	 Phase (deg)
1000.054            -43.393             68.137
1047.179            -43.159             69.875
1096.539            -42.873             71.429
1148.134            -42.569             72.648
1202.337            -42.159             71.912
1258.962            -41.628             73.248
1318.194            -41.152             73.699
1380.406            -40.738             75.101
1445.413            -40.265             75.365
1513.585            -39.981             75.981
1584.925            -39.674             76.010
1659.617            -39.252             76.575
1737.848            -38.857             78.046
1819.618            -38.488             78.391
1905.486            -38.096             78.499
1995.265            -37.727             78.545
2089.329            -37.270             79.598
2187.677            -36.850             79.684
2290.867            -36.446             80.569
2398.901            -36.049             79.689
2511.963            -35.590             80.547
2630.241            -35.115             81.657
2754.293            -34.708             80.826
2884.120            -34.302             81.009
3019.907            -33.959             81.249
3162.213            -33.491             81.634
3311.224            -33.058             82.212
3467.314            -32.618             83.420
3630.854            -32.227             82.590
3801.845            -31.811             83.098
3981.031            -31.329             82.919
4168.786            -30.920             82.745
4365.109            -30.511             83.481
4570.931            -30.025             83.306
4786.253            -29.566             83.320
5011.819            -29.135             88.658
5248.003            -28.639             83.305
5495.362            -28.176             83.331
5754.456            -27.641             83.688
6025.657            -27.145             83.485
6309.524            -26.658             83.169
6606.989            -26.135             83.777
6918.237            -25.578             83.491
7244.386            -25.007             82.844
7585.809            -24.434             83.012
7943.250            -23.801             83.006
8317.642            -23.150             82.739
8709.729            -22.485             82.314
9120.069            -21.768             81.904
9549.968            -21.030             81.609
9999.983            -20.243             80.693
10471.232            -19.386             80.257
10964.833            -18.469             79.275
11481.531            -17.447             78.168
12022.629            -16.321             76.742
12589.246            -15.055             75.182
13182.499            -13.607             72.781
13803.877            -11.895             69.327
14454.313             -9.839             63.899
15135.668             -7.283             54.345
15848.875             -4.374             36.588
16595.796             -2.436              3.314
17377.920             -3.589            -30.015
18196.926             -6.215            -50.393
19054.674             -8.780            -62.095
19952.655            -10.905            -68.659
20892.918            -12.711            -73.009
21877.699            -14.259            -75.723
22908.673            -15.579            -77.760
23988.262            -16.777            -79.578
25118.887            -17.831            -80.651
26302.598            -18.811            -81.608
27542.375            -19.668            -82.196
28840.266            -20.506            -83.291
30199.438            -21.292            -83.670
31622.685            -22.011            -84.640
33113.174            -22.697            -84.661
34673.698            -23.379            -84.595
36307.797            -23.989            -85.415
38019.009            -24.581            -85.342
39810.687            -25.165            -85.524
41686.930            -25.730            -85.446
43651.648            -26.274            -85.747
45708.753            -26.786            -86.619
47863.089            -27.314            -86.480
50118.752            -27.772            -87.175
52480.772            -28.331            -86.775
54954.179            -28.805            -86.867
57544.000            -29.310            -87.321
60256.012            -29.752            -87.555
63095.801            -30.233            -88.182
66069.327            -30.690            -87.166
69183.111            -31.134            -87.348
72443.672            -31.580            -86.914
75857.714            -32.046            -86.721
79432.875            -32.411            -87.081
83176.419            -32.814            -86.503
87096.356            -33.271            -86.607
91201.067            -33.679            -86.355
95499.307            -34.036            -86.608
100000.016            -34.427            -86.488
