9/16/2019	11:56 AM
Amplitude: 2.00 V
Freq  (Hz) 	 Gain (dB)  	 Phase (deg)
1000.054            -15.295            -78.280
1047.179            -15.678            -78.734
1096.539            -16.067            -79.213
1148.134            -16.450            -79.847
1202.337            -16.847            -80.093
1258.962            -17.231            -80.524
1318.194            -17.623            -80.906
1380.406            -18.015            -81.244
1445.413            -18.415            -81.568
1513.585            -18.809            -81.955
1584.925            -19.201            -82.274
1659.617            -19.598            -82.728
1737.848            -19.988            -82.764
1819.618            -20.383            -83.179
1905.486            -20.788            -83.342
1995.265            -21.193            -83.519
2089.329            -21.596            -83.927
2187.677            -22.025            -83.997
2290.867            -22.421            -84.356
2398.901            -22.839            -84.559
2511.963            -23.231            -84.857
2630.241            -23.642            -84.923
2754.293            -24.063            -85.042
2884.120            -24.484            -85.211
3019.907            -24.915            -85.630
3162.213            -25.369            -85.469
3311.224            -25.783            -85.644
3467.314            -26.183            -85.894
3630.854            -26.633            -86.083
3801.845            -27.055            -86.125
3981.031            -27.508            -86.378
4168.786            -27.919            -86.323
4365.109            -28.408            -86.252
4570.931            -28.840            -86.482
4786.253            -29.287            -86.376
5011.819            -29.709            -85.937
5248.003            -30.211            -86.870
5495.362            -30.726            -82.644
5754.456            -31.184            -86.536
6025.657            -31.678            -92.332
6309.524            -32.222            -86.957
6606.989            -32.630            -86.588
6918.237            -33.299            -86.951
7244.386            -33.916            -87.595
7585.809            -34.456            -86.926
7943.250            -34.969            -87.249
8317.642            -35.669            -86.451
8709.729            -36.209            -83.494
9120.069            -37.078            -87.342
9549.968            -38.001            -85.163
9999.983            -38.826            -86.708
10471.232            -39.756            -85.961
10964.833            -40.587            -85.220
11481.531            -41.730            -85.829
12022.629            -42.718            -87.239
12589.246            -44.127            -85.036
13182.499            -45.622            -82.929
13803.877            -47.689            -83.021
14454.313            -50.591            -79.770
15135.668            -53.586            -78.444
15848.875            -57.486            -94.475
16595.796            -60.851            -37.152
17377.920            -58.628             58.504
18196.926            -56.604             62.005
19054.674            -52.661             74.479
19952.655            -49.833             80.058
20892.918            -47.078             81.790
21877.699            -44.893             83.175
22908.673            -43.390             83.811
23988.262            -42.228             86.024
25118.887            -41.222             86.959
26302.598            -40.252             84.925
27542.375            -39.283             86.764
28840.266            -38.405             87.936
30199.438            -37.459             86.112
31622.685            -36.518             87.379
33113.174            -35.779             88.165
34673.698            -35.195             87.722
36307.797            -34.477             87.285
38019.009            -33.912             86.634
39810.687            -33.273             87.355
41686.930            -32.603             88.136
43651.648            -32.041             87.637
45708.753            -31.469             87.338
47863.089            -30.907             86.393
50118.752            -30.368             87.430
52480.772            -29.791             87.090
54954.179            -29.259             86.785
57544.000            -28.698             86.994
60256.012            -28.125             87.083
63095.801            -27.592             86.914
66069.327            -27.033             86.484
69183.111            -26.459             86.939
72443.672            -25.845             86.589
75857.714            -25.297             86.524
79432.875            -24.635             86.154
83176.419            -23.958             86.511
87096.356            -23.287             86.143
91201.067            -22.614             85.953
95499.307            -21.893             85.810
100000.016            -21.096             85.196
