9/16/2019	11:50 AM
Amplitude: 2.00 V
Freq  (Hz) 	 Gain (dB)  	 Phase (deg)
1000.054            -29.122             86.339
1122.057            -29.482            -134.939
1258.962            -30.525             63.780
1412.630            -34.129             56.610
1584.925            -30.581            -152.940
1778.267            -32.435             91.923
1995.265            -34.864            -97.361
2238.713            -30.650            -150.066
2511.963            -34.109             40.228
2818.368            -35.440             41.228
3162.213            -26.296            117.429
3548.153            -32.573            146.180
3981.031            -27.068            -42.917
4466.809            -36.035            -171.700
5011.819            -31.412             99.676
5623.326            -26.988            -70.176
6309.524            -23.420            -10.758
7079.542            -31.224             38.513
7943.250            -36.603             73.655
8912.571            -36.609            158.499
9999.983            -36.527            -174.979
11220.202            -33.331            -139.989
12589.246            -41.686             58.115
14125.369            -37.081            159.349
15848.875            -24.439             51.311
17782.860            -32.257             44.404
19952.655            -35.683            -98.429
22387.132            -35.021            110.318
25118.887            -38.558            -69.187
28183.870            -37.267            -133.435
31622.685            -35.883             83.165
35481.341            -35.184            115.574
39810.687            -34.573             51.686
44668.280            -33.613             47.906
50118.752            -31.127             70.433
56234.188            -30.504             47.826
63095.801            -29.412             24.419
70794.486            -26.298              1.775
79432.875            -26.632            -20.679
89125.149            -28.308              9.529
100000.016            -29.998            -27.039
