9/16/2019	11:35 AM
Amplitude: 2.00 V
Freq  (Hz) 	 Gain (dB)  	 Phase (deg)
1000.054            -53.033             43.475
1047.179            -59.392             59.551
1096.539            -59.526            -117.448
1148.134            -58.724             69.427
1202.337            -58.715             62.489
1258.962            -58.614             71.996
1318.194            -58.123             60.642
1380.406            -58.034             69.632
1445.413            -55.806            -32.686
1513.585            -57.941             76.778
1584.925            -59.920            129.580
1659.617            -57.122             75.635
1737.848            -56.972            103.636
1819.618            -56.807             67.311
1905.486            -56.700             62.291
1995.265            -63.873            -118.719
2089.329            -55.779             73.841
2187.677            -74.824             -4.536
2290.867            -55.162             81.303
2398.901            -55.111             76.240
2511.963            -54.070             75.738
2630.241            -56.831            -118.243
2754.293            -53.293             87.812
2884.120            -51.583            -49.650
3019.907            -53.470             77.740
3162.213            -53.142             84.369
3311.224            -52.519             83.504
3467.314            -52.596             83.975
3630.854            -71.251            -16.674
3801.845            -52.144             77.711
3981.031            -51.703             82.149
4168.786            -51.357             81.877
4365.109            -51.241             84.443
4570.931            -50.375             80.372
4786.253            -49.784             84.103
5011.819            -50.306             -8.103
5248.003            -52.053             17.529
5495.362            -48.442            -37.875
5754.456            -47.640             92.500
6025.657            -47.327            -89.310
6309.524            -47.861             65.044
6606.989            -46.215             86.070
6918.237            -45.248             84.565
7244.386            -44.723             84.613
7585.809            -43.983             86.403
7943.250            -43.596             84.608
8317.642            -43.012             85.282
8709.729            -42.478             87.268
9120.069            -41.564             85.972
9549.968            -40.631             85.749
9999.983            -39.753             84.041
10471.232            -39.275             84.569
10964.833            -38.175             84.196
11481.531            -37.015             84.303
12022.629            -35.852             84.405
12589.246            -34.408             83.595
13182.499            -32.905             83.254
13803.877            -31.079             81.461
14454.313            -28.759             80.110
15135.668            -25.648             75.824
15848.875            -20.664             65.872
16595.796            -13.002             11.402
17377.920            -18.558            -60.136
18196.926            -24.209            -74.965
19054.674            -27.763            -80.549
19952.655            -30.357            -82.601
20892.918            -32.305            -84.557
21877.699            -34.042            -84.847
22908.673            -35.439            -85.758
23988.262            -36.706            -86.675
25118.887            -37.853            -85.684
26302.598            -38.852            -86.574
27542.375            -39.647            -86.292
28840.266            -40.542            -86.485
30199.438            -41.397            -86.496
31622.685            -42.255            -87.182
33113.174            -42.976            -86.518
34673.698            -43.470            -88.086
36307.797            -43.974            -86.838
38019.009            -44.545            -87.619
39810.687            -45.186            -87.773
41686.930            -46.069            -86.538
43651.648            -46.545            -86.802
45708.753            -47.124            -83.933
47863.089            -47.462            -82.243
50118.752            -48.421            -85.982
52480.772            -48.884            -80.835
54954.179            -49.217            -80.833
57544.000            -50.246            -81.845
60256.012            -50.668            -82.047
63095.801            -51.438            -81.520
66069.327            -51.881            -83.323
69183.111            -52.251            -79.743
72443.672            -52.040            -78.257
75857.714            -52.748            -76.273
79432.875            -52.456            -77.824
83176.419            -52.797            -71.773
87096.356            -53.076            -79.979
91201.067            -52.822            -76.282
95499.307            -52.988            -68.707
100000.016            -52.806            -68.538
